Logger Frequency: 0.01 sec
Time	sai2::interfaces::scalar_key	sai2::interfaces::vector_key[2]
0	0.21352458000183105	0.8823267519242627	0.47063733685161513
0.010029315948486328	0.2242279052734375	0.887313500533811	0.46116672881988635
0.019974231719970703	0.23492431640625	0.8921954756936483	0.45164945826579334
0.029964208602905273	0.24550890922546387	0.8969259345724365	0.4421808090491505
0.039980411529541016	0.2561016082763672	0.9015594157771987	0.43265531294955356
0.04995608329772949	0.26692700386047363	0.9061901632200849	0.4228704152375238
0.05997300148010254	0.27753186225891113	0.9106236040742466	0.4132367985826406
0.06998109817504883	0.2881338596343994	0.9149534798173468	0.40355932620883395
0.0799555778503418	0.29882383346557617	0.9192151583855854	0.39375562547621223
0.08994531631469727	0.30946874618530273	0.9233544939347355	0.3839485363047091
0.09996914863586426	0.3203010559082031	0.9274592898754463	0.37392414421073805
0.1099693775177002	0.3309195041656494	0.9313774237446848	0.3640550707498989
0.11997079849243164	0.3416752815246582	0.9352391700408881	0.3540165177237228
0.12998390197753906	0.3522491455078125	0.9389301403242383	0.34410781971746346
0.13995623588562012	0.3522491455078125	0.9389301403242383	0.34410781971746346
0.14997529983520508	0.3629300594329834	0.9425518994770143	0.3340597503325899
0.15995383262634277	0.3735847473144531	0.9460576346491115	0.3239983825918397
0.16997742652893066	0.3842041492462158	0.9494448952697769	0.3139337363937848
0.17995810508728027	0.39486050605773926	0.9527363138710749	0.30379847963963963
0.1899728775024414	0.4054689407348633	0.9559054703097162	0.2936745338499072
0.19997477531433105	0.4160337448120117	0.9589546802671306	0.28355937860308095
0.20995640754699707	0.42674779891967773	0.9619376535332428	0.27326900796643383
0.2199714183807373	0.4374065399169922	0.9647956602061031	0.2630006350704682
0.22995901107788086	0.4479858875274658	0.9675239927309887	0.25277919908466734
0.23996353149414062	0.45858287811279297	0.9701483172594104	0.24251235539397634
0.24995851516723633	0.46916794776916504	0.9726609305019658	0.2322298737782246
0.25997424125671387	0.47975611686706543	0.9750652520605609	0.22191835035452714
0.26996731758117676	0.4905078411102295	0.9773948529770831	0.2114220929181862
0.27996015548706055	0.501154899597168	0.9795904356909803	0.2010039260879138
0.2899606227874756	0.5118215084075928	0.981678698604878	0.1905437815973881
0.299957275390625	0.5224277973175049	0.981678698604878	0.1905437815973881
0.30997705459594727	0.5224277973175049	0.9836444074597066	0.18012129156000067
0.31996893882751465	0.5330789089202881	0.9855070683421171	0.169634366352239
0.3299572467803955	0.5438148975372314	0.987271431040872	0.159044400877581
0.3399515151977539	0.5545423030853271	0.9889207264206571	0.14844459187063663
0.3499562740325928	0.5651378631591797	0.9904380400669549	0.13795828640690247
0.359966516494751	0.5756983757019043	0.9918396946976399	0.12749125468867442
0.36995458602905273	0.5862612724304199	0.9931310149752989	0.11700763690517266
0.37999629974365234	0.5967769622802734	0.99430649874342	0.10655790236580888
0.38997483253479004	0.6073880195617676	0.9953811933165218	0.0960014582794295
0.3999810218811035	0.6181714534759521	0.9963585265149467	0.08526245739458985
0.40994954109191895	0.628901481628418	0.9972160209539361	0.07456679926615276
0.4199521541595459	0.6394844055175781	0.9979492982676229	0.06400935937157126
0.42996716499328613	0.6501128673553467	0.9985732407504175	0.05339927768433413
0.43996739387512207	0.6606564521789551	0.999080746360827	0.042867962992109425
0.4499673843383789	0.6711914539337158	0.9994769104664425	0.032340461413759077
0.45995354652404785	0.6818976402282715	0.9997658661702419	0.021638226379860893
0.46996426582336426	0.6924571990966797	0.9997658661702419	0.021638226379860893
0.4799506664276123	0.6924571990966797	0.9999386134789021	0.01108012968745731
0.4899601936340332	0.7030596733093262	0.9999998858143018	0.00047788218572725053
0.49997854232788086	0.7136368751525879	0.9999490023048779	-0.010099147958087033
0.5099771022796631	0.7242200374603271	0.999786125094435	-0.02068100743810206
0.5199604034423828	0.734788179397583	0.9995117389917293	-0.031245537565054243
0.5299661159515381	0.7453885078430176	0.999124376710416	-0.0418387363937137
0.5399520397186279	0.7559545040130615	0.9986265462660433	-0.05239294888393071
0.5499567985534668	0.7664721012115479	0.9980202750424296	-0.06289300918411482
0.5599515438079834	0.7770709991455078	0.9972976343416795	-0.0734671936070092
0.5699517726898193	0.7876074314117432	0.9964682088681515	-0.08397088016150596
0.5799682140350342	0.7983052730560303	0.9955128995553366	-0.09462593100691918
0.5899524688720703	0.8088192939758301	0.9944629950685744	-0.105087351471243
0.5999727249145508	0.819354772567749	0.9933006796577373	-0.11555846914647666
0.6099889278411865	0.8299515247344971	0.9920203891977188	-0.12607754524897158
0.6199603080749512	0.8405230045318604	0.9906321561094588	-0.1365574285124207
0.6299898624420166	0.851250171661377	0.9891103133232855	-0.14717604450966923
0.6399586200714111	0.8619093894958496	0.9874853712187347	-0.1577106262399516
0.6499619483947754	0.8725953102111816	0.9874853712187347	-0.1577106262399516
0.6599526405334473	0.8725953102111816	0.9857437406456111	-0.1682536114857516
0.6699478626251221	0.8831839561462402	0.9839069360244166	-0.17868167573381608
0.679990291595459	0.8937311172485352	0.9819676608661049	-0.18904896988122027
0.6900005340576172	0.9043087959289551	0.9799130645616018	-0.1994251385896223
0.6999650001525879	0.9149055480957031	0.9777448280711671	-0.2097976434092713
0.709951639175415	0.9255309104919434	0.9754605016669353	-0.22017449826828453
0.7199780941009521	0.936302661895752	0.9730322914699081	-0.2306689397314252
0.7299764156341553	0.9470045566558838	0.970508023443134	-0.24106882094642865
0.7399585247039795	0.9575800895690918	0.9679043684917187	-0.25131878850306283
0.7499501705169678	0.9681081771850586	0.9652048700765693	-0.2614948542141376
0.7599525451660156	0.9786398410797119	0.9623974172614084	-0.27164537774195724
0.7699480056762695	0.9891998767852783	0.9594752256231062	-0.28179299390774354
0.7799451351165771	0.9997274875640869	0.9564555043502246	-0.2918781735556077
0.789947509765625	0.9897346496582031	0.9533266840833375	-0.3019407779924209
0.7999496459960938	0.9791827201843262	0.9500876126758364	-0.31198321788187566
0.809981107711792	0.9685952663421631	0.9467313173185171	-0.3220245531141147
0.8199541568756104	0.9579205513000488	0.9432399229736264	-0.33211210111754047
0.8299698829650879	0.9579205513000488	0.9432399229736264	-0.33211210111754047
0.8400065898895264	0.9470624923706055	0.9395782988246987	-0.3423340771493328
0.8499729633331299	0.9364681243896484	0.9358988245462743	-0.35226891746633315
0.8599767684936523	0.925872802734375	0.9321139599868303	-0.3621651082002098
0.8699500560760498	0.915184736251831	0.9281899495269843	-0.37210672877159096
0.879953145980835	0.9045989513397217	0.9241989758389546	-0.3819113156980655
0.8899490833282471	0.8938665390014648	0.9200469985406038	-0.39180801481902605
0.8999471664428711	0.8833081722259521	0.9158589401428513	-0.40150018899175266
0.9099485874176025	0.872750997543335	0.9115692736804937	-0.4111465180220031
0.919947624206543	0.8621165752410889	0.9071455057644435	-0.4208170996660806
0.9299719333648682	0.8515238761901855	0.9026371074537959	-0.43040243057799343
0.9399516582489014	0.8409018516540527	0.8980145276224076	-0.4399658034201113
0.9499483108520508	0.8303003311157227	0.8932998440342891	-0.4494612204054037
0.959953784942627	0.8197286128997803	0.8884984374917073	-0.4588796427984082
0.9699487686157227	0.8091316223144531	0.883585898211459	-0.4682691111763077
0.9799468517303467	0.7985665798187256	0.8785893946633884	-0.47757792619113043
0.9899492263793945	0.7879753112792969	0.8734820557559492	-0.48685634254096044
0.9999473094940186	0.7879753112792969	0.8734820557559492	-0.48685634254096044
1.0099575519561768	0.777397871017456	0.8682835947926276	-0.4960681394868975
1.0199990272521973	0.7667660713195801	0.8629605242289092	-0.5052713465283443
1.0299694538116455	0.7558937072753906	0.8574161343913461	-0.5146237193186892
1.0399956703186035	0.7451672554016113	0.8518468283937859	-0.5237909706700259
1.0499653816223145	0.7345247268676758	0.8462242321879273	-0.5328269408147011
1.0599496364593506	0.7238729000091553	0.840500752749102	-0.5418103770030553
1.0699498653411865	0.7132925987243652	0.834721299118305	-0.5506726366892123
1.0799469947814941	0.7027034759521484	0.8288434699218513	-0.559480564781213
1.0899462699890137	0.6920685768127441	0.8228466915993373	-0.568263426699295
1.0999479293823242	0.6814637184143066	0.8167741819035164	-0.5769574817747332
1.1099772453308105	0.6708724498748779	0.810617774141236	-0.5855756349493275
1.1199612617492676	0.6602694988250732	0.8043634952424559	-0.5941374988345204
1.1299569606781006	0.6496920585632324	0.7980341619507398	-0.6026122105961514
1.1399712562561035	0.639155387878418	0.7916404539885783	-0.6109872270422334
1.149947166442871	0.628413200378418	0.7850315657893471	-0.6194557617088778
1.1599998474121094	0.6177985668182373	0.7784121688320208	-0.6277535307859522
1.1699597835540771	0.6177985668182373	0.7784121688320208	-0.6277535307859522
1.1799507141113281	0.6072049140930176	0.7717184118857792	-0.6359643801004038
1.1899499893188477	0.5966212749481201	0.7649444990291591	-0.6440961988748488
1.1999709606170654	0.5859873294830322	0.7580520944034831	-0.6521940065429095
1.2099580764770508	0.5754184722900391	0.7511169403132507	-0.6601691767830883
1.2199535369873047	0.5647552013397217	0.7440348083117206	-0.6681408564221628
1.2299599647521973	0.553980827331543	0.7367929620980722	-0.6761184297168276
1.239975929260254	0.5432369709014893	0.7294864587458666	-0.6839952532776927
1.2499639987945557	0.5324981212615967	0.7220992149066732	-0.6917895083268943
1.2599599361419678	0.5218043327331543	0.7146602169997769	-0.699471782302783
1.2699716091156006	0.511225700378418	0.7072209126477418	-0.7069926313008469
1.279973030090332	0.5006189346313477	0.699682365996866	-0.7144540480066075
1.2899622917175293	0.48996639251708984	0.6920320596701025	-0.7218667663694982
1.299994707107544	0.47920966148376465	0.6842272465830115	-0.729268863337405
1.3099675178527832	0.4685831069946289	0.6764391447621511	-0.7364985291454761
1.3199772834777832	0.4577772617340088	0.6684413182401734	-0.7437648849396826
1.3299798965454102	0.4577772617340088	0.6684413182401734	-0.7437648849396826
1.339972972869873	0.4470229148864746	0.660404112632623	-0.7509103861433253
1.3499548435211182	0.4362614154815674	0.6522851066452013	-0.7579737064363501
1.3599495887756348	0.4258077144622803	0.6443259799627611	-0.7647509604734261
1.369990587234497	0.4152395725250244	0.6362081530657699	-0.7715174566869124
1.379974365234375	0.4046003818511963	0.6279639799709554	-0.7782424043053922
1.3900187015533447	0.394026517868042	0.6196999990528146	-0.7848387803708107
1.399972677230835	0.38345789909362793	0.6113708830045299	-0.7913442003415843
1.4099714756011963	0.37290215492248535	0.6029837509007995	-0.7977534682780155
1.4199590682983398	0.36237049102783203	0.5945487948674552	-0.8040595317025081
1.4299709796905518	0.3518040180206299	0.5860196891446716	-0.8102968122452305
1.4399712085723877	0.3411874771118164	0.5773842763834421	-0.8164725331480348
1.4499502182006836	0.330533504486084	0.568652996618095	-0.8225775157620471
1.4599504470825195	0.31981897354125977	0.5598069923005942	-0.828623033333833
1.469970464706421	0.30916833877563477	0.5509500470268363	-0.8345382230198488
1.4799671173095703	0.29854869842529297	0.542056650930443	-0.840341946580124
1.4899685382843018	0.28792643547058105	0.5330999051564802	-0.8460522981010995
1.499952793121338	0.28792643547058105	0.5330999051564802	-0.8460522981010995
1.5099914073944092	0.2771642208099365	0.5239638115609152	-0.8517405263192293
1.5199708938598633	0.26634860038757324	0.5147212432028611	-0.8573575927206227
1.529961347579956	0.25574374198913574	0.5056003144742587	-0.8627678262450048
1.5399725437164307	0.24498820304870605	0.49629171638411723	-0.8681558225621175
1.549957513809204	0.2344048023223877	0.4870760527891148	-0.8733595587152954
1.5599560737609863	0.22376441955566406	0.47775577557743865	-0.8784926971252522
1.5699481964111328	0.21301817893981934	0.4682878776184276	-0.8835759524090889
1.579972267150879	0.20254850387573242	0.4590116282617602	-0.8884302590076993
1.589958667755127	0.19183945655822754	0.44947124811031397	-0.8932947985531745
1.5999510288238525	0.18121576309204102	0.43995597244030016	-0.8980193440645418
1.6100025177001953	0.17061138153076172	0.43040847421330647	-0.9026342256558708
1.619962453842163	0.15999627113342285	0.42080284309304833	-0.9071521191315199
1.6299712657928467	0.14932799339294434	0.4111013298954903	-0.9115896536041638
1.6399497985839844	0.13866639137268066	0.4013591432551597	-0.9159207597415205
1.6499438285827637	0.12800073623657227	0.3915676051817858	-0.920149341450724
1.659987449645996	0.11747503280639648	0.3915676051817858	-0.920149341450724
1.6699621677398682	0.11747503280639648	0.3818608741675392	-0.9242198184306604
1.679950475692749	0.10687947273254395	0.37204699601300656	-0.9282138938615915
1.6899633407592773	0.0964059829711914	0.36230512955976035	-0.9320595437495853
1.6999714374542236	0.08576035499572754	0.35236242810410473	-0.9358636221483233
1.7099723815917969	0.07512187957763672	0.3423865142645674	-0.9395591917754619
1.7199575901031494	0.0645749568939209	0.3324581968816849	-0.9431179922608723
1.7299590110778809	0.053966522216796875	0.32243467186343866	-0.9465917189476764
1.7399892807006836	0.04338836669921875	0.312403624561065	-0.9499494593719758
1.7499547004699707	0.03272366523742676	0.3022551236349549	-0.9532270664623503
1.7599496841430664	0.022135019302368164	0.2921449841654669	-0.9563740420081251
1.7699484825134277	0.011472225189208984	0.28193095031527965	-0.9594346977540072
1.779973030090332	0.0008962154388427734	0.271768381635249	-0.9623626898126079
1.7899668216705322	0.009741783142089844	0.2615155843358554	-0.9651992535997301
1.7999894618988037	0.02024364471435547	0.25136496067985054	-0.9678923785950674
1.8099544048309326	0.03079986572265625	0.24113385943002394	-0.9704918659300455
1.8199472427368164	0.041359663009643555	0.23087240830639014	-0.972984034341164
1.8299715518951416	0.051889657974243164	0.2206142811219034	-0.9753611325888816
1.8399658203125	0.062448978424072266	0.2206142811219034	-0.9753611325888816
1.8499667644500732	0.062448978424072266	0.21030302270980045	-0.9776362506776849
1.8599796295166016	0.07306337356567383	0.1999143532701656	-0.9798133757795774
1.869950532913208	0.08358502388000488	0.18959422410071153	-0.9818625312067109
1.8799512386322021	0.09411978721618652	0.17924020542702634	-0.9838053408873513
1.8899600505828857	0.10470390319824219	0.16881765054075465	-0.985647300440629
1.8999481201171875	0.1153254508972168	0.15833922488869875	-0.9873847729541134
1.9099488258361816	0.12594914436340332	0.14784081381722397	-0.9890111696891299
1.9199531078338623	0.13654589653015137	0.137352403171427	-0.99052224474922
1.929948091506958	0.14718317985534668	0.12680836535401957	-0.9919272344664408
1.9399473667144775	0.15775680541992188	0.11631320500213847	-0.9932125846676181
1.949965476989746	0.16830992698669434	0.10582542965835681	-0.9943847235540297
1.9599766731262207	0.17886090278625488	0.09532800481326656	-0.9954459159082033
1.969956874847412	0.18937110900878906	0.08486059044345447	-0.9963928342725014
1.9799654483795166	0.1998450756072998	0.07441994126286443	-0.9972269913828204
1.989952564239502	0.21040844917297363	0.06388190389855852	-0.997957465202949
1.9999704360961914	0.22101259231567383	0.05329602675792584	-0.9985787567997921
2.0099518299102783	0.23159146308898926	0.042729405951047704	-0.9990866818585215
2.019972085952759	0.24239444732666016	0.03193400487575963	-0.9994899796058963
2.0299668312072754	0.24239444732666016	0.03193400487575963	-0.9994899796058963
2.039949417114258	0.2531447410583496	0.021187555702979227	-0.9997755185457049
2.049992084503174	0.26380419731140137	0.010529490419300364	-0.9999445633791455
2.059959888458252	0.2743685245513916	-3.464224324552646e-05	-0.9999999993999575
2.0699665546417236	0.2849433422088623	-0.010609260867245002	-0.9999437202082179
2.0799789428710938	0.29549670219421387	-0.021161240240585938	-0.9997760758847354
2.0899529457092285	0.30605602264404297	-0.031716820302681005	-0.9994968950976724
2.099949359893799	0.3166217803955078	-0.04227529554357505	-0.9991060000754192
2.1099681854248047	0.32718539237976074	-0.05282690864482065	-0.9986036840123472
2.119983673095703	0.3377726078033447	-0.06339618282875477	-0.9979884388121654
2.1299667358398438	0.348339319229126	-0.07393790319637403	-0.9972628472328264
2.1399638652801514	0.3589661121368408	-0.08453123466799127	-0.9964208299536421
2.149967670440674	0.36968207359313965	-0.09520378413060082	-0.9954578039712251
2.159952402114868	0.3804309368133545	-0.10589811808719916	-0.9943769851447637
2.1699628829956055	0.3911745548248291	-0.11657500745369392	-0.9931818905100773
2.17999005317688	0.4019351005554199	-0.12725523135621625	-0.9918700046339116
2.189964771270752	0.41253185272216797	-0.12725523135621625	-0.9918700046339116
2.1999926567077637	0.41253185272216797	-0.13775849051845024	-0.9904658491286199
2.209970474243164	0.4230966567993164	-0.14821468561121415	-0.988955209789184
2.220001697540283	0.4335975646972656	-0.15859125065697977	-0.9873443245469409
2.2299604415893555	0.44417357444763184	-0.16902434990846524	-0.9856118755057798
2.239950656890869	0.454761266708374	-0.17945003650905045	-0.9837670884904112
2.249971389770508	0.4653334617614746	-0.1898403917195189	-0.9818149650885241
2.2599563598632812	0.4759213924407959	-0.20022494542252908	-0.9797499534220684
2.2699742317199707	0.4864990711212158	-0.2105770311526663	-0.9775772675092895
2.2799665927886963	0.4970724582672119	-0.22090137069494117	-0.9752961521635858
2.2899651527404785	0.507622241973877	-0.23117805047150577	-0.9729114599901647
2.299952745437622	0.518153190612793	-0.24141072290603374	-0.970423032942843
2.3099608421325684	0.5287322998046875	-0.25166323371757615	-0.9678148670044352
2.3199527263641357	0.5393531322479248	-0.26192784607352626	-0.965087458964877
2.3300867080688477	0.5500710010528564	-0.2722562847737275	-0.9622247738450757
2.339949369430542	0.5606610774993896	-0.282430861630066	-0.9592876567531236
2.3499534130096436	0.5713465213775635	-0.2926649573448256	-0.9562150504684348
2.359949827194214	0.5819566249847412	-0.30279383462598347	-0.9530560810951749
2.369950771331787	0.5819566249847412	-0.30279383462598347	-0.9530560810951749
2.3799688816070557	0.592667818069458	-0.3129846375814843	-0.9497581885079943
2.389967918395996	0.6033921241760254	-0.32315194175799605	-0.9463470941140131
2.399945020675659	0.6141695976257324	-0.33333220749037956	-0.9428094396269007
2.409950017929077	0.6249299049377441	-0.34345763391077566	-0.9391681711538203
2.4199397563934326	0.635643482208252	-0.3534995812272991	-0.9354346829533979
2.42999529838562	0.6463527679443359	-0.36349695601881105	-0.9315953858650539
2.4399523735046387	0.6568915843963623	-0.3732945010503932	-0.927712894965645
2.4499847888946533	0.6674003601074219	-0.38302283626779987	-0.9237388737610701
2.4599950313568115	0.6779227256774902	-0.3927213710421077	-0.9196575040344135
2.469959259033203	0.688530683517456	-0.4024547800880917	-0.9154398669406122
2.4799716472625732	0.6991851329803467	-0.41218526078322515	-0.9111000553139401
2.4899635314941406	0.7098379135131836	-0.4218674386184141	-0.9066575231219
2.499948024749756	0.72039794921875	-0.4314180745714348	-0.9021521185105514
2.5099539756774902	0.7309198379516602	-0.4408863626757999	-0.8975629310563705
2.5199501514434814	0.7417664527893066	-0.450595756509513	-0.8927281020644637
2.530097723007202	0.7524468898773193	-0.46010460169167544	-0.8878647168922441
2.5399467945098877	0.7524468898773193	-0.46010460169167544	-0.8878647168922441
2.5499589443206787	0.7631919384002686	-0.46961800690104893	-0.8828697115624062
2.559948682785034	0.773944616317749	-0.4790838892445282	-0.8777691194535934
